 #arxiv:0908.1811 D0 13 Aug 2009
 #D0_Hp_taunu_1.0fb
 #used interpolation
 #columns: Mh, obs, exp BR(t -> H+ b)*BR(H+ -> tau nu)
 
          80.00  0.1600000      0.1800000    
          85.00  0.1575000      0.1775000    
          90.00  0.1550000      0.1750000    
          95.00  0.1525000      0.1725000    
         100.00  0.1500000      0.1700000    
         105.00  0.1550000      0.1725000    
         110.00  0.1600000      0.1750000    
         115.00  0.1650000      0.1775000    
         120.00  0.1700000      0.1800000    
         125.00  0.1725000      0.1825000    
         130.00  0.1750000      0.1850000    
         135.00  0.1775000      0.1875000    
         140.00  0.1800000      0.1900000    
         145.00  0.1850000      0.1900000    
         150.00  0.1900000      0.1900000    
         155.00  0.1800000      0.1900000    
