# hep-ex/0410017 Delphi, CP even Higgs
# read from fig 9 (upper) using EasyNData (P. Uwer, arXiv:0710.2896)
# LEP b-b-higgs production cross section as ratio to SM cross section x Br(higgs->bb) 
# columns: Mh (GeV), obs, exp 

   12        323.            178.    
   13        425.            223.    
   14        408.            236.    
   15        345.            212.    
   16        345.            217.    
   17        376.            236.    
   18        392.            248.    
   19        416.            261.    
   20        425.            274.    
   21        467.            288.    
   22        494.            302.    
   23        521.            323.    
   24        568.            345.    
   25        598.            384.    
   26        648.            408.    
   27        690.            425.    
   28        733.            450.    
   29        789.            494.    
   30        858.            540.    
   31        943.            598.    
   32       0.103E+04        658.    
   33       0.114E+04        711.    
   34       0.128E+04        789.    
   35       0.141E+04        894.    
   36       0.158E+04        968.    
   37       0.173E+04       0.106E+04
   38       0.196E+04       0.122E+04
   39       0.214E+04       0.140E+04
   40       0.241E+04       0.154E+04
   41       0.274E+04       0.177E+04
   42       0.322E+04       0.205E+04
   43       0.370E+04       0.235E+04
   44       0.439E+04       0.282E+04
   45       0.511E+04       0.325E+04
   46       0.602E+04       0.380E+04
   47       0.717E+04       0.450E+04
   48       0.834E+04       0.520E+04
   49       0.984E+04       0.624E+04
   50       0.100E+05       0.741E+04
