# hep-ex/0410017 Delphi, CP odd Higgs
# read from fig 11 (lower) using EasyNData (P. Uwer, arXiv:0710.2896)
# LEP tau-tau-higgs production cross section as ratio to SM cross section x Br(higgs->tau tau) 
# columns: Mh (GeV), obs, exp 

    4        873.            997.    
    5        826.            947.    
    6        815.            947.    
    7        826.            972.    
    8        910.           0.104E+04
    9       0.101E+04       0.117E+04
   10       0.117E+04       0.131E+04
   11       0.131E+04       0.149E+04
   12       0.145E+04       0.169E+04
   13       0.161E+04       0.186E+04
   14       0.177E+04       0.207E+04
   15       0.202E+04       0.232E+04
   16       0.228E+04       0.266E+04
   17       0.258E+04       0.301E+04
   18       0.299E+04       0.345E+04
   19       0.338E+04       0.394E+04
   20       0.384E+04       0.452E+04
   21       0.438E+04       0.511E+04
   22       0.491E+04       0.570E+04
   23       0.549E+04       0.639E+04
   24       0.614E+04       0.726E+04
   25       0.689E+04       0.808E+04
   26       0.783E+04       0.913E+04
