#CMS PAS HIG-11-008 Jul 23, 2011
#11008_CMS_Hplus-taunu_1.1fb-1
#table 7, interpolated
#columns: Mh, obs, exp (Br(t->Hplus b), for Br(Hplus->tau nu)=1)

          80.00  0.3900000E-01  0.4200000E-01
          85.00  0.3800000E-01  0.4100000E-01
          90.00  0.3700000E-01  0.4000000E-01
          95.00  0.3600000E-01  0.3900000E-01
         100.00  0.3500000E-01  0.3800000E-01
         105.00  0.3650000E-01  0.3875000E-01
         110.00  0.3800000E-01  0.3950000E-01
         115.00  0.3950000E-01  0.4025000E-01
         120.00  0.4100000E-01  0.4100000E-01
         125.00  0.4200000E-01  0.4100000E-01
         130.00  0.4300000E-01  0.4100000E-01
         135.00  0.4400000E-01  0.4100000E-01
         140.00  0.4500000E-01  0.4100000E-01
         145.00  0.4550000E-01  0.4050000E-01
         150.00  0.4600000E-01  0.4000000E-01
         155.00  0.4900000E-01  0.4000000E-01
         160.00  0.4800000E-01  0.4200000E-01
